Position relative de BB3_Dévidoir<1> / BB3_Porte<1>
a1(rad)
Temps(s)   a1(rad)     
0.000000 0.000000
0.002000 0.000020
0.004000 0.000080
0.006000 0.000179
0.008000 0.000319
0.010000 0.000498
0.012000 0.000717
0.014000 0.000976
0.016000 0.001274
0.018000 0.001613
0.020000 0.001991
0.022000 0.002409
0.024000 0.002868
0.026000 0.003366
0.028000 0.003904
0.030000 0.004482
0.032000 0.005099
0.034000 0.005757
0.036000 0.006455
0.038000 0.007193
0.040000 0.007970
0.042000 0.008788
0.044000 0.009646
0.046000 0.010544
0.048000 0.011482
0.050000 0.012460
0.052000 0.013479
0.054000 0.014537
0.056000 0.015636
0.058000 0.016775
0.060000 0.017954
0.062000 0.019174
0.064000 0.020434
0.066000 0.021734
0.068000 0.023075
0.070000 0.024456
0.072000 0.025878
0.074000 0.027341
0.076000 0.028843
0.078000 0.030387
0.080000 0.031971
0.082000 0.033596
0.084000 0.035261
0.086000 0.036968
0.088000 0.038715
0.090000 0.040503
0.092000 0.042332
0.094000 0.044202
0.096000 0.046113
0.098000 0.048065
0.100000 0.050058
0.102000 0.052092
0.104000 0.054168
0.106000 0.056285
0.108000 0.058443
0.110000 0.060643
0.112000 0.062884
0.114000 0.065166
0.116000 0.067491
0.118000 0.069856
0.120000 0.072264
0.122000 0.074713
0.124000 0.077204
0.126000 0.079737
0.128000 0.082312
0.130000 0.084929
0.132000 0.087588
0.134000 0.090289
0.136000 0.093032
0.138000 0.095818
0.140000 0.098646
0.142000 0.101516
0.144000 0.104429
0.146000 0.107384
0.148000 0.110382
0.150000 0.113423
0.152000 0.116506
0.154000 0.119632
0.156000 0.122801
0.158000 0.126013
0.160000 0.129268
0.162000 0.132567
0.164000 0.135908
0.166000 0.139293
0.168000 0.142721
0.170000 0.146193
0.172000 0.149708
0.174000 0.153266
0.176000 0.156869
0.178000 0.160515
0.180000 0.164204
0.182000 0.167938
0.184000 0.171716
0.186000 0.175538
0.188000 0.179404
0.190000 0.183314
0.192000 0.187268
0.194000 0.191267
0.196000 0.195310
0.198000 0.199398
0.200000 0.203531
0.202000 0.207708
0.204000 0.211930
0.206000 0.216197
0.208000 0.220509
0.210000 0.224865
0.212000 0.229267
0.214000 0.233714
0.216000 0.238207
0.218000 0.242745
0.220000 0.247328
0.222000 0.251957
0.224000 0.256631
0.226000 0.261351
0.228000 0.266117
0.230000 0.270929
0.232000 0.275786
0.234000 0.280690
0.236000 0.285639
0.238000 0.290635
0.240000 0.295677
0.242000 0.300766
0.244000 0.305901
0.246000 0.311082
0.248000 0.316310
0.250000 0.321584
0.252000 0.326906
0.254000 0.332274
0.256000 0.337688
0.258000 0.343150
0.260000 0.348659
0.262000 0.354215
0.264000 0.359818
0.266000 0.365468
0.268000 0.371166
0.270000 0.376911
0.272000 0.382703
0.274000 0.388543
0.276000 0.394430
0.278000 0.400365
0.280000 0.406348
0.282000 0.412378
0.284000 0.418456
0.286000 0.424582
0.288000 0.430756
0.290000 0.436978
0.292000 0.443248
0.294000 0.449567
0.296000 0.455933
0.298000 0.462347
0.300000 0.468810
0.302000 0.475321
0.304000 0.481880
0.306000 0.488488
0.308000 0.495144
0.310000 0.501849
0.312000 0.508602
0.314000 0.515404
0.316000 0.522254
0.318000 0.529153
0.320000 0.536100
0.322000 0.543097
0.324000 0.550141
0.326000 0.557235
0.328000 0.564377
0.330000 0.571568
0.332000 0.578808
0.334000 0.586097
0.336000 0.593434
0.338000 0.600821
0.340000 0.608256
0.342000 0.615740
0.344000 0.623273
0.346000 0.630854
0.348000 0.638485
0.350000 0.646164
0.352000 0.653892
0.354000 0.661669
0.356000 0.669494
0.358000 0.677369
0.360000 0.685292
0.362000 0.693264
0.364000 0.701285
0.366000 0.709354
0.368000 0.717472
0.370000 0.725638
0.372000 0.733853
0.374000 0.742117
0.376000 0.750428
0.378000 0.758789
0.380000 0.767198
0.382000 0.775654
0.384000 0.784160
0.386000 0.792713
0.388000 0.801314
0.390000 0.809964
0.392000 0.818661
0.394000 0.827406
0.396000 0.836199
0.398000 0.845040
0.400000 0.853928
0.402000 0.862864
0.404000 0.871847
0.406000 0.880877
0.408000 0.889955
0.410000 0.899079
0.412000 0.908251
0.414000 0.917469
0.416000 0.926734
0.418000 0.936045
0.420000 0.945403
0.422000 0.954807
0.424000 0.964257
0.426000 0.973753
0.428000 0.983295
0.430000 0.992882
0.432000 1.002515
0.434000 1.012193
0.436000 1.021916
0.438000 1.031684
0.440000 1.041496
0.442000 1.051354
0.444000 1.061255
0.446000 1.071201
0.447554 1.078960
0.447554 1.078960
0.447554 1.078960
0.448000 1.077846
0.450000 1.072877
0.452000 1.067952
0.454000 1.063070
0.456000 1.058233
0.458000 1.053440
0.460000 1.048691
0.462000 1.043986
0.464000 1.039326
0.466000 1.034711
0.468000 1.030140
0.470000 1.025614
0.472000 1.021133
0.474000 1.016696
0.476000 1.012305
0.478000 1.007958
0.480000 1.003657
0.482000 0.999401
0.484000 0.995191
0.486000 0.991025
0.488000 0.986906
0.490000 0.982831
0.492000 0.978803
0.494000 0.974820
0.496000 0.970883
0.498000 0.966991
0.500000 0.963146
0.502000 0.959346
0.504000 0.955593
0.506000 0.951885
0.508000 0.948224
0.510000 0.944609
0.512000 0.941040
0.514000 0.937517
0.516000 0.934041
0.518000 0.930611
0.520000 0.927227
0.522000 0.923890
0.524000 0.920600
0.526000 0.917356
0.528000 0.914159
0.530000 0.911009
0.532000 0.907905
0.534000 0.904848
0.536000 0.901838
0.538000 0.898875
0.540000 0.895958
0.542000 0.893089
0.544000 0.890267
0.546000 0.887491
0.548000 0.884763
0.550000 0.882082
0.552000 0.879448
0.554000 0.876861
0.556000 0.874321
0.558000 0.871829
0.560000 0.869384
0.562000 0.866986
0.564000 0.864635
0.566000 0.862332
0.568000 0.860076
0.570000 0.857868
0.572000 0.855707
0.574000 0.853593
0.576000 0.851527
0.578000 0.849509
0.580000 0.847537
0.582000 0.845614
0.584000 0.843738
0.586000 0.841910
0.588000 0.840129
0.590000 0.838396
0.592000 0.836710
0.594000 0.835072
0.596000 0.833482
0.598000 0.831940
0.600000 0.830445
0.602000 0.828998
0.604000 0.827599
0.606000 0.826247
0.608000 0.824943
0.610000 0.823687
0.612000 0.822479
0.614000 0.821319
0.616000 0.820206
0.618000 0.819142
0.620000 0.818125
0.622000 0.817156
0.624000 0.816234
0.626000 0.815361
0.628000 0.814536
0.630000 0.813758
0.632000 0.813029
0.634000 0.812347
0.636000 0.811713
0.638000 0.811127
0.640000 0.810589
0.642000 0.810099
0.644000 0.809657
0.646000 0.809263
0.648000 0.808916
0.650000 0.808618
0.652000 0.808368
0.654000 0.808165
0.656000 0.808011
0.658000 0.807904
0.660000 0.807846
0.662000 0.807835
0.664000 0.807872
0.666000 0.807957
0.668000 0.808091
0.670000 0.808272
0.672000 0.808501
0.674000 0.808778
0.676000 0.809103
0.678000 0.809476
0.680000 0.809897
0.682000 0.810365
0.684000 0.810882
0.686000 0.811447
0.688000 0.812059
0.690000 0.812720
0.692000 0.813428
0.694000 0.814184
0.696000 0.814988
0.698000 0.815840
0.700000 0.816740
0.702000 0.817688
0.704000 0.818683
0.706000 0.819727
0.708000 0.820818
0.710000 0.821957
0.712000 0.823144
0.714000 0.824379
0.716000 0.825661
0.718000 0.826992
0.720000 0.828370
0.722000 0.829795
0.724000 0.831269
0.726000 0.832790
0.728000 0.834359
0.730000 0.835976
0.732000 0.837640
0.734000 0.839352
0.736000 0.841112
0.738000 0.842919
0.740000 0.844774
0.742000 0.846676
0.744000 0.848626
0.746000 0.850623
0.748000 0.852668
0.750000 0.854761
0.752000 0.856901
0.754000 0.859088
0.756000 0.861323
0.758000 0.863605
0.760000 0.865935
0.762000 0.868312
0.764000 0.870736
0.766000 0.873207
0.768000 0.875726
0.770000 0.878292
0.772000 0.880905
0.774000 0.883565
0.776000 0.886272
0.778000 0.889027
0.780000 0.891828
0.782000 0.894677
0.784000 0.897572
0.786000 0.900514
0.788000 0.903504
0.790000 0.906540
0.792000 0.909623
0.794000 0.912752
0.796000 0.915929
0.798000 0.919152
0.800000 0.922421
0.802000 0.925737
0.804000 0.929100
0.806000 0.932509
0.808000 0.935965
0.810000 0.939467
0.812000 0.943016
0.814000 0.946610
0.816000 0.950251
0.818000 0.953938
0.820000 0.957671
0.822000 0.961450
0.824000 0.965275
0.826000 0.969146
0.828000 0.973063
0.830000 0.977026
0.832000 0.981034
0.834000 0.985088
0.836000 0.989188
0.838000 0.993333
0.840000 0.997523
0.842000 1.001759
0.844000 1.006040
0.846000 1.010366
0.848000 1.014738
0.850000 1.019154
0.852000 1.023615
0.854000 1.028122
0.856000 1.032673
0.858000 1.037268
0.860000 1.041908
0.862000 1.046593
0.864000 1.051322
0.866000 1.056096
0.868000 1.060913
0.870000 1.065775
0.872000 1.070681
0.874000 1.075631
0.875335 1.078959
0.875335 1.078959
0.875335 1.078959
0.876000 1.078131
0.878000 1.075667
0.880000 1.073247
0.882000 1.070870
0.884000 1.068538
0.886000 1.066249
0.888000 1.064005
0.890000 1.061804
0.892000 1.059648
0.894000 1.057536
0.896000 1.055468
0.898000 1.053444
0.900000 1.051464
0.902000 1.049529
0.904000 1.047638
0.906000 1.045791
0.908000 1.043989
0.910000 1.042232
0.912000 1.040518
0.914000 1.038850
0.916000 1.037226
0.918000 1.035646
0.920000 1.034111
0.922000 1.032621
0.924000 1.031176
0.926000 1.029775
0.928000 1.028419
0.930000 1.027107
0.932000 1.025841
0.934000 1.024619
0.936000 1.023442
0.938000 1.022310
0.940000 1.021223
0.942000 1.020181
0.944000 1.019183
0.946000 1.018231
0.948000 1.017324
0.950000 1.016461
0.952000 1.015644
0.954000 1.014871
0.956000 1.014144
0.958000 1.013462
0.960000 1.012824
0.962000 1.012232
0.964000 1.011685
0.966000 1.011183
0.968000 1.010726
0.970000 1.010314
0.972000 1.009947
0.974000 1.009626
0.976000 1.009349
0.978000 1.009118
0.980000 1.008931
0.982000 1.008790
0.984000 1.008694
0.986000 1.008643
0.988000 1.008638
0.990000 1.008677
0.992000 1.008762
0.994000 1.008892
0.996000 1.009066
0.998000 1.009286
1.000000 1.009552
1.002000 1.009862
1.004000 1.010217
1.006000 1.010618
1.008000 1.011063
1.010000 1.011554
1.012000 1.012090
1.014000 1.012671
1.016000 1.013296
1.018000 1.013967
1.020000 1.014683
1.022000 1.015444
1.024000 1.016251
1.026000 1.017102
1.028000 1.017998
1.030000 1.018939
1.032000 1.019925
1.034000 1.020955
1.036000 1.022031
1.038000 1.023152
1.040000 1.024318
1.042000 1.025528
1.044000 1.026783
1.046000 1.028083
1.048000 1.029428
1.050000 1.030817
1.052000 1.032252
1.054000 1.033731
1.056000 1.035254
1.058000 1.036823
1.060000 1.038435
1.062000 1.040093
1.064000 1.041795
1.066000 1.043541
1.068000 1.045332
1.070000 1.047167
1.072000 1.049047
1.074000 1.050971
1.076000 1.052940
1.078000 1.054952
1.080000 1.057009
1.082000 1.059110
1.084000 1.061255
1.086000 1.063445
1.088000 1.065678
1.090000 1.067956
1.092000 1.070277
1.094000 1.072642
1.096000 1.075051
1.098000 1.077504
1.099170 1.078960
1.099170 1.078960
1.099170 1.078960
1.100000 1.078445
1.102000 1.077235
1.104000 1.076069
1.106000 1.074946
1.108000 1.073867
1.110000 1.072832
1.112000 1.071841
1.114000 1.070894
1.116000 1.069990
1.118000 1.069131
1.120000 1.068315
1.122000 1.067544
1.124000 1.066816
1.126000 1.066132
1.128000 1.065493
1.130000 1.064897
1.132000 1.064346
1.134000 1.063838
1.136000 1.063374
1.138000 1.062955
1.140000 1.062580
1.142000 1.062248
1.144000 1.061961
1.146000 1.061718
1.148000 1.061519
1.150000 1.061364
1.152000 1.061253
1.154000 1.061186
1.156000 1.061164
1.158000 1.061185
1.160000 1.061251
1.162000 1.061360
1.164000 1.061514
1.166000 1.061712
1.168000 1.061954
1.170000 1.062240
1.172000 1.062570
1.174000 1.062944
1.176000 1.063362
1.178000 1.063825
1.180000 1.064331
1.182000 1.064881
1.184000 1.065476
1.186000 1.066114
1.188000 1.066796
1.190000 1.067523
1.192000 1.068293
1.194000 1.069107
1.196000 1.069966
1.198000 1.070868
1.200000 1.071814
1.202000 1.072804
1.204000 1.073838
1.206000 1.074915
1.208000 1.076037
1.210000 1.077202
1.212000 1.078411
1.212885 1.078960
1.212885 1.078960
1.212885 1.078960
1.214000 1.078960
1.216000 1.078960
1.218000 1.078960
1.220000 1.078960
1.222000 1.078960
1.224000 1.078960
1.226000 1.078960
1.228000 1.078960
1.230000 1.078960
1.232000 1.078960
1.234000 1.078960
1.236000 1.078960
1.238000 1.078960
1.240000 1.078960
1.242000 1.078960
1.244000 1.078960
1.246000 1.078960
1.248000 1.078960
1.250000 1.078960
1.252000 1.078960
1.254000 1.078960
1.256000 1.078960
1.258000 1.078960
1.260000 1.078960
1.262000 1.078960
1.264000 1.078960
1.266000 1.078960
1.268000 1.078960
1.270000 1.078960
1.272000 1.078960
1.274000 1.078960
1.276000 1.078960
1.278000 1.078960
1.280000 1.078960
1.282000 1.078960
1.284000 1.078960
1.286000 1.078960
1.288000 1.078960
1.290000 1.078960
1.292000 1.078960
1.294000 1.078960
1.296000 1.078960
1.298000 1.078960
1.300000 1.078960
1.302000 1.078960
1.304000 1.078960
1.306000 1.078960
1.308000 1.078960
1.310000 1.078960
1.312000 1.078960
1.314000 1.078960
1.316000 1.078960
1.318000 1.078960
1.320000 1.078960
1.322000 1.078960
1.324000 1.078960
1.326000 1.078960
1.328000 1.078960
1.330000 1.078960
1.332000 1.078960
1.334000 1.078960
1.336000 1.078960
1.338000 1.078960
1.340000 1.078960
1.342000 1.078960
1.344000 1.078960
1.346000 1.078960
1.348000 1.078960
1.350000 1.078960
1.352000 1.078960
1.354000 1.078960
1.356000 1.078960
1.358000 1.078960
1.360000 1.078960
1.362000 1.078960
1.364000 1.078960
1.366000 1.078960
1.368000 1.078960
1.370000 1.078960
1.372000 1.078960
1.374000 1.078960
1.376000 1.078960
1.378000 1.078960
1.380000 1.078960
1.382000 1.078960
1.384000 1.078960
1.386000 1.078960
1.388000 1.078960
1.390000 1.078960
1.392000 1.078960
1.394000 1.078960
1.396000 1.078960
1.398000 1.078960
1.400000 1.078960
1.402000 1.078960
1.404000 1.078960
1.406000 1.078960
1.408000 1.078960
1.410000 1.078960
1.412000 1.078960
1.414000 1.078960
1.416000 1.078960
1.418000 1.078960
1.420000 1.078960
1.422000 1.078960
1.424000 1.078960
1.426000 1.078960
1.428000 1.078960
1.430000 1.078960
1.432000 1.078960
1.434000 1.078960
1.436000 1.078960
1.438000 1.078960
1.440000 1.078960
1.442000 1.078960
1.444000 1.078960
1.446000 1.078960
1.448000 1.078960
1.450000 1.078960
1.452000 1.078960
1.454000 1.078960
1.456000 1.078960
1.458000 1.078960
1.460000 1.078960
1.462000 1.078960
1.464000 1.078960
1.466000 1.078960
1.468000 1.078960
1.470000 1.078960
1.472000 1.078960
1.474000 1.078960
1.476000 1.078960
1.478000 1.078960
1.480000 1.078960
1.482000 1.078960
1.484000 1.078960
1.486000 1.078960
1.488000 1.078960
1.490000 1.078960
1.492000 1.078960
1.494000 1.078960
1.496000 1.078960
1.498000 1.078960
1.500000 1.078960
1.502000 1.078960
1.504000 1.078960
1.506000 1.078960
1.508000 1.078960
1.510000 1.078960
1.512000 1.078960
1.514000 1.078960
1.516000 1.078960
1.518000 1.078960
1.520000 1.078960
1.522000 1.078960
1.524000 1.078960
1.526000 1.078960
1.528000 1.078960
1.530000 1.078960
1.532000 1.078960
1.534000 1.078960
1.536000 1.078960
1.538000 1.078960
1.540000 1.078960
1.542000 1.078960
1.544000 1.078960
1.546000 1.078960
1.548000 1.078960
1.550000 1.078960
1.552000 1.078960
1.554000 1.078960
1.556000 1.078960
1.558000 1.078960
1.560000 1.078960
1.562000 1.078960
1.564000 1.078960
1.566000 1.078960
1.568000 1.078960
1.570000 1.078960
1.572000 1.078960
1.574000 1.078960
1.576000 1.078960
1.578000 1.078960
1.580000 1.078960
1.582000 1.078960
1.584000 1.078960
1.586000 1.078960
1.588000 1.078960
1.590000 1.078960
1.592000 1.078960
1.594000 1.078960
1.596000 1.078960
1.598000 1.078960
1.600000 1.078960
1.602000 1.078960
1.604000 1.078960
1.606000 1.078960
1.608000 1.078960
1.610000 1.078960
1.612000 1.078960
1.614000 1.078960
1.616000 1.078960
1.618000 1.078960
1.620000 1.078960
1.622000 1.078960
1.624000 1.078960
1.626000 1.078960
1.628000 1.078960
1.630000 1.078960
1.632000 1.078960
1.634000 1.078960
1.636000 1.078960
1.638000 1.078960
1.640000 1.078960
1.642000 1.078960
1.644000 1.078960
1.646000 1.078960
1.648000 1.078960
1.650000 1.078960
1.652000 1.078960
1.654000 1.078960
1.656000 1.078960
1.658000 1.078960
1.660000 1.078960
1.662000 1.078960
1.664000 1.078960
1.666000 1.078960
1.668000 1.078960
1.670000 1.078960
1.672000 1.078960
1.674000 1.078960
1.676000 1.078960
1.678000 1.078960
1.680000 1.078960
1.682000 1.078960
1.684000 1.078960
1.686000 1.078960
1.688000 1.078960
1.690000 1.078960
1.692000 1.078960
1.694000 1.078960
1.696000 1.078960
1.698000 1.078960
1.700000 1.078960
1.702000 1.078960
1.704000 1.078960
1.706000 1.078960
1.708000 1.078960
1.710000 1.078960
1.712000 1.078960
1.714000 1.078960
1.716000 1.078960
1.718000 1.078960
1.720000 1.078960
1.722000 1.078960
1.724000 1.078960
1.726000 1.078960
1.728000 1.078960
1.730000 1.078960
1.732000 1.078960
1.734000 1.078960
1.736000 1.078960
1.738000 1.078960
1.740000 1.078960
1.742000 1.078960
1.744000 1.078960
1.746000 1.078960
1.748000 1.078960
1.750000 1.078960
1.752000 1.078960
1.754000 1.078960
1.756000 1.078960
1.758000 1.078960
1.760000 1.078960
1.762000 1.078960
1.764000 1.078960
1.766000 1.078960
1.768000 1.078960
1.770000 1.078960
1.772000 1.078960
1.774000 1.078960
1.776000 1.078960
1.778000 1.078960
1.780000 1.078960
1.782000 1.078960
1.784000 1.078960
1.786000 1.078960
1.788000 1.078960
1.790000 1.078960
1.792000 1.078960
1.794000 1.078960
1.796000 1.078960
1.798000 1.078960
1.800000 1.078960
1.802000 1.078960
1.804000 1.078960
1.806000 1.078960
1.808000 1.078960
1.810000 1.078960
1.812000 1.078960
1.814000 1.078960
1.816000 1.078960
1.818000 1.078960
1.820000 1.078960
1.822000 1.078960
1.824000 1.078960
1.826000 1.078960
1.828000 1.078960
1.830000 1.078960
1.832000 1.078960
1.834000 1.078960
1.836000 1.078960
1.838000 1.078960
1.840000 1.078960
1.842000 1.078960
1.844000 1.078960
1.846000 1.078960
1.848000 1.078960
1.850000 1.078960
1.852000 1.078960
1.854000 1.078960
1.856000 1.078960
1.858000 1.078960
1.860000 1.078960
1.862000 1.078960
1.864000 1.078960
1.866000 1.078960
1.868000 1.078960
1.870000 1.078960
1.872000 1.078960
1.874000 1.078960
1.876000 1.078960
1.878000 1.078960
1.880000 1.078960
1.882000 1.078960
1.884000 1.078960
1.886000 1.078960
1.888000 1.078960
1.890000 1.078960
1.892000 1.078960
1.894000 1.078960
1.896000 1.078960
1.898000 1.078960
1.900000 1.078960
1.902000 1.078960
1.904000 1.078960
1.906000 1.078960
1.908000 1.078960
1.910000 1.078960
1.912000 1.078960
1.914000 1.078960
1.916000 1.078960
1.918000 1.078960
1.920000 1.078960
1.922000 1.078960
1.924000 1.078960
1.926000 1.078960
1.928000 1.078960
1.930000 1.078960
1.932000 1.078960
1.934000 1.078960
1.936000 1.078960
1.938000 1.078960
1.940000 1.078960
1.942000 1.078960
1.944000 1.078960
1.946000 1.078960
1.948000 1.078960
1.950000 1.078960
1.952000 1.078960
1.954000 1.078960
1.956000 1.078960
1.958000 1.078960
1.960000 1.078960
1.962000 1.078960
1.964000 1.078960
1.966000 1.078960
1.968000 1.078960
1.970000 1.078960
1.972000 1.078960
1.974000 1.078960
1.976000 1.078960
1.978000 1.078960
1.980000 1.078960
1.982000 1.078960
1.984000 1.078960
1.986000 1.078960
1.988000 1.078960
1.990000 1.078960
1.992000 1.078960
1.994000 1.078960
1.996000 1.078960
1.998000 1.078960
2.000000 1.078960

Valeur mini ordonnée    = 0.000000
Valeur maxi ordonnée    = 1.078960
